0	0.5
0.02	0.00999934
0.04	0.0199948
0.06	0.0299825
0.08	0.039959
0.1	0.0499207
0.12	0.0598643
0.14	0.0697867
0.16	0.0796847
0.18	0.0895555
0.2	0.0993962
0.22	0.109204
0.24	0.118977
0.26	0.128712
0.28	0.138407
0.3	0.148059
0.32	0.157667
0.34	0.167229
0.36	0.176742
0.38	0.186205
0.4	0.195616
0.42	0.204973
0.44	0.214276
0.46	0.223521
0.48	0.232709
0.5	0.241837
0.52	0.250904
0.54	0.25991
0.56	0.268852
0.58	0.277731
0.6	0.286545
0.62	0.295293
0.64	0.303974
0.66	0.312588
0.68	0.321133
0.7	0.32961
0.72	0.338017
0.74	0.346354
0.76	0.35462
0.78	0.362816
0.8	0.370939
0.82	0.378991
0.84	0.386971
0.86	0.394878
0.88	0.402713
0.9	0.410474
0.92	0.418162
0.94	0.425777
0.96	0.433319
0.98	0.440786
1	0.448181
1.02	0.455502
1.04	0.462749
1.06	0.469923
1.08	0.477023
1.1	0.48405
1.12	0.491004
1.14	0.497884
1.16	0.504692
1.18	0.511427
1.2	0.518089
1.22	0.524679
1.24	0.531198
1.26	0.537644
1.28	0.544019
1.3	0.550323
1.32	0.556555
1.34	0.562718
1.36	0.56881
1.38	0.574832
1.4	0.580785
1.42	0.586669
1.44	0.592484
1.46	0.598231
1.48	0.60391
1.5	0.609522
1.52	0.615067
1.54	0.620545
1.56	0.625958
1.58	0.631305
1.6	0.636586
1.62	0.641803
1.64	0.646956
1.66	0.652046
1.68	0.657072
1.7	0.662035
1.72	0.666937
1.74	0.671777
1.76	0.676556
1.78	0.681274
1.8	0.685932
1.82	0.690531
1.84	0.695071
1.86	0.699552
1.88	0.703975
1.9	0.708341
1.92	0.71265
1.94	0.716903
1.96	0.7211
1.98	0.725242
2	0.729329
2.02	0.733363
2.04	0.737342
2.06	0.741268
2.08	0.745142
2.1	0.748964
2.12	0.752735
2.14	0.756454
2.16	0.760124
2.18	0.763743
2.2	0.767313
2.22	0.770835
2.24	0.774308
2.26	0.777733
2.28	0.781112
2.3	0.784444
2.32	0.787729
2.34	0.790969
2.36	0.794164
2.38	0.797314
2.4	0.800421
2.42	0.803483
2.44	0.806503
2.46	0.80948
2.48	0.812415
2.5	0.815309
2.52	0.818161
2.54	0.820973
2.56	0.823745
2.58	0.826478
2.6	0.829171
2.62	0.831825
2.64	0.834442
2.66	0.837021
2.68	0.839562
2.7	0.842067
2.72	0.844536
2.74	0.846968
2.76	0.849366
2.78	0.851728
2.8	0.854056
2.82	0.85635
2.84	0.85861
2.86	0.860837
2.88	0.863031
2.9	0.865193
2.92	0.867323
2.94	0.869422
2.96	0.871489
2.98	0.873526
3	0.875532
3.02	0.877509
3.04	0.879456
3.06	0.881374
3.08	0.883264
3.1	0.885125
3.12	0.886958
3.14	0.888763
3.16	0.890542
3.18	0.892293
3.2	0.894018
3.22	0.895717
3.24	0.897391
3.26	0.899039
3.28	0.900661
3.3	0.90226
3.32	0.903833
3.34	0.905383
3.36	0.90691
3.38	0.908412
3.4	0.909892
3.42	0.911349
3.44	0.912784
3.46	0.914197
3.48	0.915588
3.5	0.916957
3.52	0.918306
3.54	0.919633
3.56	0.92094
3.58	0.922227
3.6	0.923494
3.62	0.924741
3.64	0.925968
3.66	0.927177
3.68	0.928367
3.7	0.929538
3.72	0.930691
3.74	0.931826
3.76	0.932943
3.78	0.934042
3.8	0.935125
3.82	0.93619
3.84	0.937239
3.86	0.938271
3.88	0.939287
3.9	0.940286
3.92	0.94127
3.94	0.942239
3.96	0.943192
3.98	0.94413
4	0.945053
4.02	0.945962
4.04	0.946856
4.06	0.947736
4.08	0.948601
4.1	0.949453
4.12	0.950292
4.14	0.951117
4.16	0.951929
4.18	0.952728
4.2	0.953514
4.22	0.954287
4.24	0.955048
4.26	0.955797
4.28	0.956534
4.3	0.957259
4.32	0.957972
4.34	0.958674
4.36	0.959365
4.38	0.960044
4.4	0.960713
4.42	0.96137
4.44	0.962017
4.46	0.962654
4.48	0.96328
4.5	0.963896
4.52	0.964502
4.54	0.965098
4.56	0.965684
4.58	0.966261
4.6	0.966829
4.62	0.967387
4.64	0.967936
4.66	0.968477
4.68	0.969008
4.7	0.969531
4.72	0.970045
4.74	0.970551
4.76	0.971048
4.78	0.971538
4.8	0.972019
4.82	0.972492
4.84	0.972958
4.86	0.973416
4.88	0.973866
4.9	0.974309
4.92	0.974745
4.94	0.975174
4.96	0.975595
4.98	0.97601
5	0.976417
5.02	0.976818
5.04	0.977212
5.06	0.9776
5.08	0.977982
5.1	0.978357
5.12	0.978725
5.14	0.979088
5.16	0.979445
5.18	0.979795
5.2	0.98014
5.22	0.98048
5.24	0.980813
5.26	0.981141
5.28	0.981464
5.3	0.981781
5.32	0.982093
5.34	0.982399
5.36	0.982701
5.38	0.982997
5.4	0.983289
5.42	0.983575
5.44	0.983857
5.46	0.984134
5.48	0.984407
5.5	0.984675
5.52	0.984938
5.54	0.985197
5.56	0.985452
5.58	0.985702
5.6	0.985948
5.62	0.98619
5.64	0.986428
5.66	0.986662
5.68	0.986892
5.7	0.987118
5.72	0.98734
5.74	0.987559
5.76	0.987774
5.78	0.987985
5.8	0.988193
5.82	0.988397
5.84	0.988597
5.86	0.988795
5.88	0.988989
5.9	0.989179
5.92	0.989367
5.94	0.989551
5.96	0.989732
5.98	0.98991
6	0.990085
6.02	0.990257
6.04	0.990426
6.06	0.990592
6.08	0.990756
6.1	0.990916
6.12	0.991074
6.14	0.99123
6.16	0.991382
6.18	0.991532
6.2	0.991679
6.22	0.991824
6.24	0.991967
6.26	0.992107
6.28	0.992244
6.3	0.992379
6.32	0.992512
6.34	0.992643
6.36	0.992771
6.38	0.992897
6.4	0.993022
6.42	0.993143
6.44	0.993263
6.46	0.993381
6.48	0.993497
6.5	0.99361
6.52	0.993722
6.54	0.993832
6.56	0.99394
6.58	0.994046
6.6	0.99415
6.62	0.994253
6.64	0.994354
6.66	0.994453
6.68	0.99455
6.7	0.994646
6.72	0.99474
6.74	0.994832
6.76	0.994923
6.78	0.995012
6.8	0.995099
6.82	0.995186
6.84	0.99527
6.86	0.995353
6.88	0.995435
6.9	0.995515
6.92	0.995594
6.94	0.995672
6.96	0.995748
6.98	0.995823
7	0.995897
7.02	0.995969
7.04	0.99604
7.06	0.99611
7.08	0.996178
7.1	0.996246
7.12	0.996312
7.14	0.996377
7.16	0.996441
7.18	0.996504
7.2	0.996566
7.22	0.996626
7.24	0.996686
7.26	0.996745
7.28	0.996802
7.3	0.996859
7.32	0.996914
7.34	0.996969
7.36	0.997023
7.38	0.997075
7.4	0.997127
7.42	0.997178
7.44	0.997228
7.46	0.997277
7.48	0.997325
7.5	0.997373
7.52	0.99742
7.54	0.997465
7.56	0.99751
7.58	0.997554
7.6	0.997598
7.62	0.997641
7.64	0.997682
7.66	0.997724
7.68	0.997764
7.7	0.997804
7.72	0.997843
7.74	0.997881
7.76	0.997919
7.78	0.997956
7.8	0.997992
7.82	0.998028
7.84	0.998063
7.86	0.998098
7.88	0.998132
7.9	0.998165
7.92	0.998198
7.94	0.99823
7.96	0.998261
7.98	0.998292
8	0.998323
8.02	0.998353
8.04	0.998382
8.06	0.998411
8.08	0.998439
8.1	0.998467
8.12	0.998495
8.14	0.998521
8.16	0.998548
8.18	0.998574
8.2	0.998599
8.22	0.998624
8.24	0.998649
8.26	0.998673
8.28	0.998697
8.3	0.99872
8.32	0.998743
8.34	0.998766
8.36	0.998788
8.38	0.998809
8.4	0.998831
8.42	0.998852
8.44	0.998872
8.46	0.998892
8.48	0.998912
8.5	0.998932
8.52	0.998951
8.54	0.99897
8.56	0.998988
8.58	0.999006
8.6	0.999024
8.62	0.999042
8.64	0.999059
8.66	0.999076
8.68	0.999093
8.7	0.999109
8.72	0.999125
8.74	0.999141
8.76	0.999156
8.78	0.999171
8.8	0.999186
8.82	0.999201
8.84	0.999215
8.86	0.999229
8.88	0.999243
8.9	0.999257
8.92	0.99927
8.94	0.999283
8.96	0.999296
8.98	0.999309
9	0.999321
9.02	0.999334
9.04	0.999346
9.06	0.999357
9.08	0.999369
9.1	0.99938
9.12	0.999392
9.14	0.999402
9.16	0.999413
9.18	0.999424
9.2	0.999434
9.22	0.999444
9.24	0.999454
9.26	0.999464
9.28	0.999474
9.3	0.999484
9.32	0.999493
9.34	0.999502
9.36	0.999511
9.38	0.99952
9.4	0.999529
9.42	0.999537
9.44	0.999545
9.46	0.999554
9.48	0.999562
9.5	0.99957
9.52	0.999577
9.54	0.999585
9.56	0.999593
9.58	0.9996
9.6	0.999607
9.62	0.999614
9.64	0.999621
9.66	0.999628
9.68	0.999635
9.7	0.999642
9.72	0.999648
9.74	0.999654
9.76	0.999661
9.78	0.999667
9.8	0.999673
9.82	0.999679
9.84	0.999685
9.86	0.99969
9.88	0.999696
9.9	0.999702
9.92	0.999707
9.94	0.999712
9.96	0.999718
9.98	0.999723
10	0.999728
10.02	0.999733
10.04	0.999737
10.06	0.999742
10.08	0.999747
10.1	0.999752
10.12	0.999756
10.14	0.999761
10.16	0.999765
10.18	0.999769
10.2	0.999773
10.22	0.999777
10.24	0.999782
10.26	0.999785
10.28	0.999789
10.3	0.999793
10.32	0.999797
10.34	0.999801
10.36	0.999804
10.38	0.999808
10.4	0.999811
10.42	0.999815
10.44	0.999818
10.46	0.999822
10.48	0.999825
10.5	0.999828
10.52	0.999831
10.54	0.999834
10.56	0.999837
10.58	0.99984
10.6	0.999843
10.62	0.999846
10.64	0.999849
10.66	0.999852
10.68	0.999854
10.7	0.999857
10.72	0.99986
10.74	0.999862
10.76	0.999865
10.78	0.999867
10.8	0.99987
10.82	0.999872
10.84	0.999874
10.86	0.999877
10.88	0.999879
10.9	0.999881
10.92	0.999883
10.94	0.999885
10.96	0.999887
10.98	0.999889
11	0.999892
11.02	0.999894
11.04	0.999895
11.06	0.999897
11.08	0.999899
11.1	0.999901
11.12	0.999903
11.14	0.999905
11.16	0.999906
11.18	0.999908
11.2	0.99991
11.22	0.999911
11.24	0.999913
11.26	0.999915
11.28	0.999916
11.3	0.999918
11.32	0.999919
11.34	0.999921
11.36	0.999922
11.38	0.999924
11.4	0.999925
11.42	0.999926
11.44	0.999928
11.46	0.999929
11.48	0.99993
11.5	0.999932
11.52	0.999933
11.54	0.999934
11.56	0.999935
11.58	0.999937
11.6	0.999938
11.62	0.999939
11.64	0.99994
11.66	0.999941
11.68	0.999942
11.7	0.999943
11.72	0.999944
11.74	0.999945
11.76	0.999946
11.78	0.999947
11.8	0.999948
11.82	0.999949
11.84	0.99995
11.86	0.999951
11.88	0.999952
11.9	0.999953
11.92	0.999954
11.94	0.999955
11.96	0.999955
11.98	0.999956
12	0.999957
12.02	0.999958
12.04	0.999959
12.06	0.999959
12.08	0.99996
12.1	0.999961
12.12	0.999962
12.14	0.999962
12.16	0.999963
12.18	0.999964
12.2	0.999964
12.22	0.999965
12.24	0.999966
12.26	0.999966
12.28	0.999967
12.3	0.999968
12.32	0.999968
12.34	0.999969
12.36	0.999969
12.38	0.99997
12.4	0.99997
12.42	0.999971
12.44	0.999972
12.46	0.999972
12.48	0.999973
12.5	0.999973
12.52	0.999974
12.54	0.999974
12.56	0.999975
12.58	0.999975
12.6	0.999975
12.62	0.999976
12.64	0.999976
12.66	0.999977
12.68	0.999977
12.7	0.999978
12.72	0.999978
12.74	0.999978
12.76	0.999979
12.78	0.999979
12.8	0.99998
12.82	0.99998
12.84	0.99998
12.86	0.999981
12.88	0.999981
12.9	0.999981
12.92	0.999982
12.94	0.999982
12.96	0.999983
12.98	0.999983
13	0.999983
13.02	0.999983
13.04	0.999984
13.06	0.999984
13.08	0.999984
13.1	0.999985
13.12	0.999985
13.14	0.999985
13.16	0.999985
13.18	0.999986
13.2	0.999986
13.22	0.999986
13.24	0.999987
13.26	0.999987
13.28	0.999987
13.3	0.999987
13.32	0.999988
13.34	0.999988
13.36	0.999988
13.38	0.999988
13.4	0.999988
13.42	0.999989
13.44	0.999989
13.46	0.999989
13.48	0.999989
13.5	0.999989
13.52	0.99999
13.54	0.99999
13.56	0.99999
13.58	0.99999
13.6	0.99999
13.62	0.999991
13.64	0.999991
13.66	0.999991
13.68	0.999991
13.7	0.999991
13.72	0.999991
13.74	0.999992
13.76	0.999992
13.78	0.999992
13.8	0.999992
13.82	0.999992
13.84	0.999992
13.86	0.999993
13.88	0.999993
13.9	0.999993
13.92	0.999993
13.94	0.999993
13.96	0.999993
13.98	0.999993
14	0.999993
14.02	0.999994
14.04	0.999994
14.06	0.999994
14.08	0.999994
14.1	0.999994
14.12	0.999994
14.14	0.999994
14.16	0.999994
14.18	0.999994
14.2	0.999995
14.22	0.999995
14.24	0.999995
14.26	0.999995
14.28	0.999995
14.3	0.999995
14.32	0.999995
14.34	0.999995
14.36	0.999995
14.38	0.999995
14.4	0.999996
14.42	0.999996
14.44	0.999996
14.46	0.999996
14.48	0.999996
14.5	0.999996
14.52	0.999996
14.54	0.999996
14.56	0.999996
14.58	0.999996
14.6	0.999996
14.62	0.999996
14.64	0.999996
14.66	0.999997
14.68	0.999997
14.7	0.999997
14.72	0.999997
14.74	0.999997
14.76	0.999997
14.78	0.999997
14.8	0.999997
14.82	0.999997
14.84	0.999997
14.86	0.999997
14.88	0.999997
14.9	0.999997
14.92	0.999997
14.94	0.999997
14.96	0.999997
14.98	0.999997
15	0.999998
15.02	0.999998
15.04	0.999998
15.06	0.999998
15.08	0.999998
15.1	0.999998
15.12	0.999998
15.14	0.999998
15.16	0.999998
15.18	0.999998
15.2	0.999998
15.22	0.999998
15.24	0.999998
15.26	0.999998
15.28	0.999998
15.3	0.999998
15.32	0.999998
15.34	0.999998
15.36	0.999998
15.38	0.999998
15.4	0.999998
15.42	0.999998
15.44	0.999998
15.46	0.999998
15.48	0.999998
15.5	0.999998
15.52	0.999999
15.54	0.999999
15.56	0.999999
15.58	0.999999
15.6	0.999999
15.62	0.999999
15.64	0.999999
15.66	0.999999
15.68	0.999999
15.7	0.999999
15.72	0.999999
15.74	0.999999
15.76	0.999999
15.78	0.999999
15.8	0.999999
15.82	0.999999
15.84	0.999999
15.86	0.999999
15.88	0.999999
15.9	0.999999
15.92	0.999999
15.94	0.999999
15.96	0.999999
15.98	0.999999
16	0.999999
16.02	0.999999
16.04	0.999999
16.06	0.999999
16.08	0.999999
16.1	0.999999
16.12	0.999999
16.14	0.999999
16.16	0.999999
16.18	0.999999
16.2	0.999999
16.22	0.999999
16.24	0.999999
16.26	0.999999
16.28	0.999999
16.3	0.999999
16.32	0.999999
16.34	0.999999
16.36	0.999999
16.38	0.999999
16.4	0.999999
16.42	0.999999
16.44	0.999999
16.46	0.999999
16.48	0.999999
16.5	0.999999
16.52	1
16.54	1
16.56	1
16.58	1
16.6	1
16.62	1
16.64	1
16.66	1
16.68	1
16.7	1
16.72	1
16.74	1
16.76	1
16.78	1
16.8	1
16.82	1
16.84	1
16.86	1
16.88	1
16.9	1
16.92	1
16.94	1
16.96	1
16.98	1
17	1
17.02	1
17.04	1
17.06	1
17.08	1
17.1	1
17.12	1
17.14	1
17.16	1
17.18	1
17.2	1
17.22	1
17.24	1
17.26	1
17.28	1
17.3	1
17.32	1
17.34	1
17.36	1
17.38	1
17.4	1
17.42	1
17.44	1
17.46	1
17.48	1
17.5	1
17.52	1
17.54	1
17.56	1
17.58	1
17.6	1
17.62	1
17.64	1
17.66	1
17.68	1
17.7	1
17.72	1
17.74	1
17.76	1
17.78	1
17.8	1
17.82	1
17.84	1
17.86	1
17.88	1
17.9	1
17.92	1
17.94	1
17.96	1
17.98	1
18	1
18.02	1
18.04	1
18.06	1
18.08	1
18.1	1
18.12	1
18.14	1
18.16	1
18.18	1
18.2	1
18.22	1
18.24	1
18.26	1
18.28	1
18.3	1
18.32	1
18.34	1
18.36	1
18.38	1
18.4	1
18.42	1
18.44	1
18.46	1
18.48	1
18.5	1
18.52	1
18.54	1
18.56	1
18.58	1
18.6	1
18.62	1
18.64	1
18.66	1
18.68	1
18.7	1
18.72	1
18.74	1
18.76	1
18.78	1
18.8	1
18.82	1
18.84	1
18.86	1
18.88	1
18.9	1
18.92	1
18.94	1
18.96	1
18.98	1
19	1
19.02	1
19.04	1
19.06	1
19.08	1
19.1	1
19.12	1
19.14	1
19.16	1
19.18	1
19.2	1
19.22	1
19.24	1
19.26	1
19.28	1
19.3	1
19.32	1
19.34	1
19.36	1
19.38	1
19.4	1
19.42	1
19.44	1
19.46	1
19.48	1
19.5	1
19.52	1
19.54	1
19.56	1
19.58	1
19.6	1
19.62	1
19.64	1
19.66	1
19.68	1
19.7	1
19.72	1
19.74	1
19.76	1
19.78	1
19.8	1
19.82	1
19.84	1
19.86	1
19.88	1
19.9	1
19.92	1
19.94	1
19.96	1
19.98	1
20	1
